0.0000000000  0.0000000000  1.0000000000  
0.0000000000  0.0000000000  1.0000000000  
0.0000000000  0.0000000000  1.0000000000  
0.0000000000  0.0000000000  1.0000000000  
0.0000000000  0.0000000000  1.0000000000  
0.0000000000  0.0000000000  1.0000000000  
0.0000000000  0.0000000000  1.0000000000  
0.0000000000  0.0000000000  1.0000000000  
0.0000000000  0.0000000000  1.0000000000  
0.0000000000  0.0000000000  1.0000000000  
0.0000000000  0.0000000000  1.0000000000  
0.0000000000  0.0000000000  1.0000000000  
0.0000000000  0.0000000000  1.0000000000  
0.0000000000  0.0000000000  1.0000000000  
0.0000000000  0.0000000000  1.0000000000  
0.0000000000  0.0000000000  1.0000000000  
0.0000000000  0.0000000000  1.0000000000  
0.0000000000  0.0000000000  1.0000000000  
0.0000000000  0.0000000000  1.0000000000  
0.0000000000  0.0000000000  1.0000000000  
0.0000000000  0.0000000000  1.0000000000  
0.0000000000  0.0000000000  1.0000000000  
0.0000000000  0.0000000000  1.0000000000  
0.0000000000  0.0000000000  1.0000000000  
0.0000000000  0.0000000000  1.0000000000  
0.0000004799  0.0000000000  1.0000000000  
0.0000130918  0.0000000000  1.0000000000  
0.0000917382  0.0000000000  1.0000000000  
0.0003638933  0.0000000000  1.0000000000  
0.0010459344  0.0000000000  1.0000000000  
0.0024396071  0.0000000000  1.0000000000  
0.0049132597  0.0000000000  1.0000000000  
0.0088736905  0.0000000000  1.0000000000  
0.0147343844  0.0000000000  1.0000000000  
0.0228848134  0.0000000000  1.0000000000  
0.0336640468  0.0000000000  1.0000000000  
0.0473405367  0.0000000000  1.0000000000  
0.0640988044  0.0000000000  1.0000000000  
0.0840328956  0.0000000000  1.0000000000  
0.1071458986  0.0000000000  1.0000000000  
0.1333544899  0.0000000000  1.0000000000  
0.1624973267  0.0000000000  1.0000000000  
0.1943461083  0.0000000000  1.0000000000  
0.2286182143  0.0000000000  1.0000000000  
0.2649899772  0.0000000000  1.0000000000  
0.3031098172  0.0000000000  1.0000000000  
0.3426106463  0.0000000000  1.0000000000  
0.3831211163  0.0000000000  1.0000000000  
0.4242754378  0.0000000000  1.0000000000  
0.4657216242  0.0000000000  1.0000000000  
0.5071281197  0.0000000000  1.0000000000  
0.5481888518  0.0000000000  1.0000000000  
0.5886268070  0.0000000000  1.0000000000  
0.6281962707  0.0000000000  1.0000000000  
0.6666838935  0.0000000000  1.0000000000  
0.7039087604  0.0000000000  1.0000000000  
0.7397216393  0.0000000000  1.0000000000  
0.7740035785  0.0000000000  1.0000000000  
0.8066640117  0.0000000000  1.0000000000  
0.8376385128  0.0000000000  1.0000000000  
0.8668863279  0.0000000000  1.0000000000  
0.8943877898  0.0000000000  1.0000000000  
0.9201417067  0.0000000000  1.0000000000  
0.9441627973  0.0000000000  1.0000000000  
0.9664792286  0.0000000000  1.0000000000  
0.9871302999  0.0000000000  1.0000000000  
1.0061643023  0.0000000000  1.0000000000  
1.0236365730  0.0000000000  1.0000000000  
1.0396077548  0.0000000000  1.0000000000  
1.0541422628  0.0000000000  1.0000000000  
1.0673069544  0.0000000000  1.0000000000  
1.0791699954  0.0000000000  1.0000000000  
1.0897999089  0.0000000000  1.0000000000  
1.0992647944  0.0000000000  1.0000000000  
1.1076317001  0.0000000000  1.0000000000  
1.1149661326  0.0000000000  1.0000000000  
1.1213316870  0.0000000000  1.0000000000  
1.1267893012  0.0000000000  1.0000000000  
1.1313863866  0.0000000000  1.0000000000  
1.1351256453  0.0000000000  1.0000000000  
1.1379337060  0.0000000000  1.0000000000  
1.1396457960  0.0000000000  1.0000000000  
1.1400093172  0.0000000000  1.0000000000  
1.1387026796  0.0000000000  1.0000000000  
1.1353635409  0.0000000000  1.0000000000  
1.1296206692  0.0000000000  1.0000000000  
1.1211247471  0.0000000000  1.0000000000  
1.1095748692  0.0000000000  1.0000000000  
1.0947388611  0.0000000000  1.0000000000  
1.0764666928  0.0000000000  1.0000000000  
1.0546971178  0.0000000000  1.0000000000  
1.0294582399  0.0000000000  1.0000000000  
1.0008630453  0.0000000000  1.0000000000  
0.9691010785  0.0000000000  1.0000000000  
0.9344274405  0.0000000000  1.0000000000  
0.8971502031  0.0000000000  1.0000000000  
0.8576171807  0.0000000000  1.0000000000  
0.8162028338  0.0000000000  1.0000000000  
0.7732958975  0.0000000000  1.0000000000  
0.7292881620  0.0000000000  1.0000000000  
0.6845646780  0.0000000000  1.0000000000  
0.6394955351  0.0000000000  1.0000000000  
0.5944292543  0.0000000000  1.0000000000  
0.5496877553  0.0000000000  1.0000000000  
0.5055627997  0.0000000000  1.0000000000  
0.4623137723  0.0000000000  1.0000000000  
0.4201666354  0.0000000000  1.0000000000  
0.3793138819  0.0000000000  1.0000000000  
0.3399153118  0.0000000000  1.0000000000  
0.3020994608  0.0000000000  1.0000000000  
0.2659655236  0.0000000000  1.0000000000  
0.2315856298  0.0000000000  1.0000000000  
0.1990073449  0.0000000000  1.0000000000  
0.1682562900  0.0000000000  1.0000000000  
0.1393387896  0.0000000000  1.0000000000  
0.1122444752  0.0000000000  1.0000000000  
0.0869487865  0.0000000000  1.0000000000  
0.0634153285  0.0000000000  1.0000000000  
0.0415980533  0.0000000000  1.0000000000  
0.0214432479  0.0000000000  1.0000000000  
0.0028913174  0.0000000000  1.0000000000  
-0.0141216392  0.0000000000  1.0000000000  
-0.0296624572  0.0000000000  1.0000000000  
-0.0437997301  0.0000000000  1.0000000000  
-0.0566028176  0.0000000000  1.0000000000  
-0.0681410252  0.0000000000  1.0000000000  
-0.0784829372  0.0000000000  1.0000000000  
-0.0876958889  0.0000004799  1.0000000000  
-0.0958455613  0.0000130918  1.0000000000  
-0.1029956804  0.0000917382  1.0000000000  
-0.1092078077  0.0003638933  1.0000000000  
-0.1145412055  0.0010459344  1.0000000000  
-0.1190527641  0.0024396071  1.0000000000  
-0.1227969791  0.0049132597  1.0000000000  
-0.1258259672  0.0088736905  1.0000000000  
-0.1281895109  0.0147343844  1.0000000000  
-0.1299351244  0.0228848134  1.0000000000  
-0.1311081331  0.0336640468  1.0000000000  
-0.1317517617  0.0473405367  1.0000000000  
-0.1319072248  0.0640988044  1.0000000000  
-0.1316138183  0.0840328956  1.0000000000  
-0.1309090065  0.1071458986  1.0000000000  
-0.1298285057  0.1333544899  1.0000000000  
-0.1284063598  0.1624973267  1.0000000000  
-0.1266750099  0.1943461083  1.0000000000  
-0.1246653559  0.2286182143  1.0000000000  
-0.1224068110  0.2649899772  1.0000000000  
-0.1199273497  0.3031098172  1.0000000000  
-0.1172535486  0.3426106463  1.0000000000  
-0.1144106225  0.3831211163  1.0000000000  
-0.1114224554  0.4242754378  1.0000000000  
-0.1083116279  0.4657216242  1.0000000000  
-0.1050994422  0.5071281197  1.0000000000  
-0.1018059440  0.5481888518  1.0000000000  
-0.0984499449  0.5886268070  1.0000000000  
-0.0950490427  0.6281962707  1.0000000000  
-0.0916196434  0.6666838935  1.0000000000  
-0.0881769835  0.7039087604  1.0000000000  
-0.0847351535  0.7397216393  1.0000000000  
-0.0813071232  0.7740035785  1.0000000000  
-0.0779047690  0.8066640117  1.0000000000  
-0.0745389038  0.8376385128  1.0000000000  
-0.0712193077  0.8668863279  1.0000000000  
-0.0679547628  0.8943877898  1.0000000000  
-0.0647530884  0.9201417067  1.0000000000  
-0.0616211796  0.9441627973  1.0000000000  
-0.0585650464  0.9664792286  1.0000000000  
-0.0555898560  0.9871302999  1.0000000000  
-0.0526999747  1.0061643023  1.0000000000  
-0.0498990121  1.0236365730  1.0000000000  
-0.0471898660  1.0396077548  1.0000000000  
-0.0445747672  1.0541422628  1.0000000000  
-0.0420553248  1.0673069544  1.0000000000  
-0.0396325718  1.0791699954  1.0000000000  
-0.0373070098  1.0897999089  1.0000000000  
-0.0350786531  1.0992647944  1.0000000000  
-0.0329470724  1.1076317001  1.0000000000  
-0.0309114370  1.1149661326  1.0000000000  
-0.0289705560  1.1213316870  1.0000000000  
-0.0271229174  1.1267893012  1.0000000000  
-0.0253667266  1.1313863866  1.0000000000  
-0.0236999422  1.1351256453  1.0000000000  
-0.0221198307  1.1379337060  1.0000000000  
-0.0206123066  1.1396457960  1.0000000000  
-0.0191208843  1.1400093172  1.0000000000  
-0.0175153861  1.1387026796  1.0000000000  
-0.0155766362  1.1353635409  1.0000000000  
-0.0129864349  1.1296206692  1.0000000000  
-0.0093884609  1.1211247471  1.0000000000  
-0.0043728434  1.1095748692  1.0000000000  
0.0024769720  1.0947388611  1.0000000000  
0.0115535087  1.0764666928  1.0000000000  
0.0231988537  1.0546971178  1.0000000000  
0.0376844324  1.0294582399  1.0000000000  
0.0551976832  1.0008630453  1.0000000000  
0.0758355033  0.9691010785  1.0000000000  
0.0996037597  0.9344274405  1.0000000000  
0.1264218270  0.8971502031  1.0000000000  
0.1561309754  0.8576171807  1.0000000000  
0.1885054270  0.8162028338  1.0000000000  
0.2232649914  0.7732958975  1.0000000000  
0.2600883351  0.7292881620  1.0000000000  
0.2986261152  0.6845646780  1.0000000000  
0.3385133823  0.6394955351  1.0000000000  
0.3793808291  0.5944292543  1.0000000000  
0.4208646089  0.5496877553  1.0000000000  
0.4626145815  0.5055627997  1.0000000000  
0.5043009418  0.4623137723  1.0000000000  
0.5456192749  0.4201666354  1.0000000000  
0.5862941339  0.3793138819  1.0000000000  
0.6260812818  0.3399153118  1.0000000000  
0.6647687608  0.3020994608  1.0000000000  
0.7021769647  0.2659655236  1.0000000000  
0.7381578902  0.2315856298  1.0000000000  
0.7725937374  0.1990073449  1.0000000000  
0.8053950182  0.1682562900  1.0000000000  
0.8364983148  0.1393387896  1.0000000000  
0.8658638142  0.1122444752  1.0000000000  
0.8934727264  0.0869487865  1.0000000000  
0.9193246767  0.0634153285  1.0000000000  
0.9434351432  0.0415980533  1.0000000000  
0.9658329987  0.0214432479  1.0000000000  
0.9865581968  0.0028913174  1.0000000000  
1.0056596350  -0.0141216392  1.0000000000  
1.0231932120  -0.0296624572  1.0000000000  
1.0392200895  -0.0437997301  1.0000000000  
1.0538051618  -0.0566028176  1.0000000000  
1.0670157286  -0.0681410252  1.0000000000  
1.0789203629  -0.0784829372  1.0000000000  
1.0895879632  -0.0876958889  1.0000000000  
1.0990869739  -0.0958455613  1.0000000000  
1.1074847603  -0.1029956804  1.0000000000  
1.1148471199  -0.1092078077  1.0000000000  
1.1212379149  -0.1145412055  1.0000000000  
1.1267183276  -0.1190527641  1.0000000000  
1.1313359934  -0.1227969791  1.0000000000  
1.1350938191  -0.1258259672  1.0000000000  
1.1379186205  -0.1281895109  1.0000000000  
1.1396457960  -0.1299351244  1.0000000000  
1.1400093172  -0.1311081331  1.0000000000  
1.1387026796  -0.1317517617  1.0000000000  
1.1353635409  -0.1319072248  1.0000000000  
1.1296206692  -0.1316138183  1.0000000000  
1.1211247471  -0.1309090065  1.0000000000  
1.1095748692  -0.1298285057  1.0000000000  
1.0947388611  -0.1284063598  1.0000000000  
1.0764666928  -0.1266750099  1.0000000000  
1.0546971178  -0.1246653559  1.0000000000  
1.0294582399  -0.1224068110  1.0000000000  
1.0008630453  -0.1199273497  1.0000000000  
0.9691010785  -0.1172535486  1.0000000000  
0.9344274405  -0.1144106225  1.0000000000  
0.8971502031  -0.1114224554  1.0000000000  
0.8576171807  -0.1083116279  1.0000000000  
0.8162028338  -0.1050994422  1.0000000000  
0.7732958975  -0.1018059440  1.0000000000  
0.7292881620  -0.0984499449  1.0000000000  
0.6845646780  -0.0950490427  1.0000000000  
0.6394955351  -0.0916196434  1.0000000000  
0.5944292543  -0.0881769835  1.0000000000  
0.5496877553  -0.0847351535  1.0000000000  
0.5055627997  -0.0813071232  1.0000000000  
0.4623137723  -0.0779047690  1.0000000000  
0.4201666354  -0.0745389038  1.0000000000  
0.3793138819  -0.0712193077  1.0000000000  
0.3399153118  -0.0679547628  1.0000000000  
0.3020994608  -0.0647530884  1.0000000000  
0.2659655236  -0.0616211796  1.0000000000  
0.2315856298  -0.0585650464  1.0000000000  
0.1990073449  -0.0555898560  1.0000000000  
0.1682562900  -0.0526999747  1.0000000000  
0.1393387896  -0.0498990121  1.0000000000  
0.1122444752  -0.0471898660  1.0000000000  
0.0869487865  -0.0445747672  1.0000000000  
0.0634153285  -0.0420553248  1.0000000000  
0.0415980533  -0.0396325718  1.0000000000  
0.0214432479  -0.0373070098  1.0000000000  
0.0028913174  -0.0350786531  1.0000000000  
-0.0141216392  -0.0329470724  1.0000000000  
-0.0296624572  -0.0309114370  1.0000000000  
-0.0437997301  -0.0289705560  1.0000000000  
-0.0566028176  -0.0271229174  1.0000000000  
-0.0681410252  -0.0253667266  1.0000000000  
-0.0784829372  -0.0236999422  1.0000000000  
-0.0876958889  -0.0221198307  1.0000000000  
-0.0958455613  -0.0206123066  1.0000000000  
-0.1029956804  -0.0191208843  1.0000000000  
-0.1092078077  -0.0175153861  1.0000000000  
-0.1145412055  -0.0155766362  1.0000000000  
-0.1190527641  -0.0129864349  1.0000000000  
-0.1227969791  -0.0093884609  1.0000000000  
-0.1258259672  -0.0043728434  1.0000000000  
-0.1281895109  0.0024769720  1.0000000000  
-0.1299351244  0.0115535087  1.0000000000  
-0.1311081331  0.0231988537  1.0000000000  
-0.1317517617  0.0376844324  1.0000000000  
-0.1319072248  0.0551976832  1.0000000000  
-0.1316138183  0.0758355033  1.0000000000  
-0.1309090065  0.0996037597  1.0000000000  
-0.1298285057  0.1264218270  1.0000000000  
-0.1284063598  0.1561309754  1.0000000000  
-0.1266750099  0.1885054270  1.0000000000  
-0.1246653559  0.2232649914  1.0000000000  
-0.1224068110  0.2600883351  1.0000000000  
-0.1199273497  0.2986261152  1.0000000000  
-0.1172535486  0.3385133823  1.0000000000  
-0.1144106225  0.3793808291  1.0000000000  
-0.1114224554  0.4208646089  1.0000000000  
-0.1083116279  0.4626145815  1.0000000000  
-0.1050994422  0.5043009418  1.0000000000  
-0.1018059440  0.5456192749  1.0000000000  
-0.0984499449  0.5862941339  1.0000000000  
-0.0950490427  0.6260812818  1.0000000000  
-0.0916196434  0.6647687608  1.0000000000  
-0.0881769835  0.7021769647  1.0000000000  
-0.0847351535  0.7381578902  1.0000000000  
-0.0813071232  0.7725937374  1.0000000000  
-0.0779047690  0.8053950182  1.0000000000  
-0.0745389038  0.8364983148  1.0000000000  
-0.0712193077  0.8658638142  1.0000000000  
-0.0679547628  0.8934727264  1.0000000000  
-0.0647530884  0.9193246767  1.0000000000  
-0.0616211796  0.9434351432  1.0000000000  
-0.0585650464  0.9658329987  1.0000000000  
-0.0555898560  0.9865581968  1.0000000000  
-0.0526999747  1.0056596350  1.0000000000  
-0.0498990121  1.0231932120  1.0000000000  
-0.0471898660  1.0392200895  1.0000000000  
-0.0445747672  1.0538051618  1.0000000000  
-0.0420553248  1.0670157286  1.0000000000  
-0.0396325718  1.0789203629  1.0000000000  
-0.0373070098  1.0895879632  1.0000000000  
-0.0350786531  1.0990869739  1.0000000000  
-0.0329470724  1.1074847603  1.0000000000  
-0.0309114370  1.1148471199  1.0000000000  
-0.0289705560  1.1212379149  1.0000000000  
-0.0271229174  1.1267183276  1.0000000000  
-0.0253667266  1.1313359934  1.0000000000  
-0.0236999422  1.1350938191  1.0000000000  
-0.0221203106  1.1379186205  1.0000000000  
-0.0206253983  1.1396457960  1.0000000000  
-0.0192126225  1.1400093172  1.0000000000  
-0.0178792794  1.1387026796  1.0000000000  
-0.0166220907  1.1353635409  1.0000000000  
-0.0154129502  1.1296206692  1.0000000000  
-0.0142099824  1.1211247471  1.0000000000  
-0.0128826407  1.1095748692  1.0000000000  
-0.0112114779  1.0947388611  1.0000000000  
-0.0088916977  1.0764666928  1.0000000000  
-0.0055519334  1.0546971178  1.0000000000  
-0.0007824137  1.0294582399  1.0000000000  
0.0058332632  1.0008630453  1.0000000000  
0.0146874212  0.9691010785  1.0000000000  
0.0261219079  0.9344274405  1.0000000000  
0.0404078738  0.8971502031  1.0000000000  
0.0577324531  0.8576171807  1.0000000000  
0.0781922143  0.8162028338  1.0000000000  
0.1017926758  0.7732958975  1.0000000000  
0.1284528479  0.7292881620  1.0000000000  
0.1580136247  0.6845646780  1.0000000000  
0.1902488443  0.6394955351  1.0000000000  
0.2248779271  0.5944292543  1.0000000000  
0.2615791483  0.5496877553  1.0000000000  
0.3000027745  0.5055627997  1.0000000000  
0.3397834684  0.4623137723  1.0000000000  
0.3805515395  0.4201666354  1.0000000000  
0.4219427647  0.3793138819  1.0000000000  
0.4636066353  0.3399153118  1.0000000000  
0.5052129870  0.3020994608  1.0000000000  
0.5464570561  0.2659655236  1.0000000000  
0.5870630579  0.2315856298  1.0000000000  
0.6267864296  0.1990073449  1.0000000000  
0.6654149000  0.1682562900  1.0000000000  
0.7027685624  0.1393387896  1.0000000000  
0.7386991255  0.1122444752  1.0000000000  
0.7730885151  0.0869487865  1.0000000000  
0.8058469816  0.0634153285  1.0000000000  
0.8369108588  0.0415980533  1.0000000000  
0.8662400980  0.0214432479  1.0000000000  
0.8938156866  0.0028913174  1.0000000000  
0.9196370394  -0.0141216392  1.0000000000  
0.9437194363  -0.0296624572  1.0000000000  
0.9660915633  -0.0437997301  1.0000000000  
0.9867931990  -0.0566028176  1.0000000000  
1.0058730765  -0.0681410252  1.0000000000  
1.0233869406  -0.0784829372  1.0000000000  
1.0393958091  -0.0876958889  1.0000000000  
1.0539644423  -0.0958455613  1.0000000000  
1.0671600146  -0.1029956804  1.0000000000  
1.0790509827  -0.1092078077  1.0000000000  
1.0897061368  -0.1145412055  1.0000000000  
1.0991938208  -0.1190527641  1.0000000000  
1.1075813068  -0.1227969791  1.0000000000  
1.1149343063  -0.1258259672  1.0000000000  
1.1213166015  -0.1281895109  1.0000000000  
1.1267893012  -0.1299351244  1.0000000000  
1.1313863866  -0.1311081331  1.0000000000  
1.1351256453  -0.1317517617  1.0000000000  
1.1379337060  -0.1319072248  1.0000000000  
1.1396457960  -0.1316138183  1.0000000000  
1.1400093172  -0.1309090065  1.0000000000  
1.1387026796  -0.1298285057  1.0000000000  
1.1353635409  -0.1284063598  1.0000000000  
1.1296206692  -0.1266750099  1.0000000000  
1.1211247471  -0.1246653559  1.0000000000  
1.1095748692  -0.1224068110  1.0000000000  
1.0947388611  -0.1199273497  1.0000000000  
1.0764666928  -0.1172535486  1.0000000000  
1.0546971178  -0.1144106225  1.0000000000  
1.0294582399  -0.1114224554  1.0000000000  
1.0008630453  -0.1083116279  1.0000000000  
0.9691010785  -0.1050994422  1.0000000000  
0.9344274405  -0.1018059440  1.0000000000  
0.8971502031  -0.0984499449  1.0000000000  
0.8576171807  -0.0950490427  1.0000000000  
0.8162028338  -0.0916196434  1.0000000000  
0.7732958975  -0.0881769835  1.0000000000  
0.7292881620  -0.0847351535  1.0000000000  
0.6845646780  -0.0813071232  1.0000000000  
0.6394955351  -0.0779047690  1.0000000000  
0.5944292543  -0.0745389038  1.0000000000  
0.5496877553  -0.0712193077  1.0000000000  
0.5055627997  -0.0679547628  1.0000000000  
0.4623137723  -0.0647530884  1.0000000000  
0.4201666354  -0.0616211796  1.0000000000  
0.3793138819  -0.0585650464  1.0000000000  
0.3399153118  -0.0555898560  1.0000000000  
0.3020994608  -0.0526999747  1.0000000000  
0.2659655236  -0.0498990121  1.0000000000  
0.2315856298  -0.0471898660  1.0000000000  
0.1990073449  -0.0445747672  1.0000000000  
0.1682562900  -0.0420553248  1.0000000000  
0.1393387896  -0.0396325718  1.0000000000  
0.1122444752  -0.0373070098  1.0000000000  
0.0869487865  -0.0350786531  1.0000000000  
0.0634153285  -0.0329470724  1.0000000000  
0.0415980533  -0.0309114370  1.0000000000  
0.0214432479  -0.0289705560  1.0000000000  
0.0028913174  -0.0271229174  1.0000000000  
-0.0141216392  -0.0253667266  1.0000000000  
-0.0296624572  -0.0236999422  1.0000000000  
-0.0437997301  -0.0221203106  1.0000000000  
-0.0566028176  -0.0206253983  1.0000000000  
-0.0681410252  -0.0192126225  1.0000000000  
-0.0784829372  -0.0178792794  1.0000000000  
-0.0876958889  -0.0166220907  1.0000000000  
-0.0958455613  -0.0154129502  1.0000000000  
-0.1029956804  -0.0142099824  1.0000000000  
-0.1092078077  -0.0128826407  1.0000000000  
-0.1145412055  -0.0112114779  1.0000000000  
-0.1190527641  -0.0088916977  1.0000000000  
-0.1227969791  -0.0055519334  1.0000000000  
-0.1258259672  -0.0007824137  1.0000000000  
-0.1281895109  0.0058332632  1.0000000000  
-0.1299351244  0.0146874212  1.0000000000  
-0.1311081331  0.0261219079  1.0000000000  
-0.1317517617  0.0404078738  1.0000000000  
-0.1319072248  0.0577324531  1.0000000000  
-0.1316138183  0.0781922143  1.0000000000  
-0.1309090065  0.1017926758  1.0000000000  
-0.1298285057  0.1284528479  1.0000000000  
-0.1284063598  0.1580136247  1.0000000000  
-0.1266750099  0.1902488443  1.0000000000  
-0.1246653559  0.2248779271  1.0000000000  
-0.1224068110  0.2615791483  1.0000000000  
-0.1199273497  0.3000027745  1.0000000000  
-0.1172535486  0.3397834684  1.0000000000  
-0.1144106225  0.3805515395  1.0000000000  
-0.1114224554  0.4219427647  1.0000000000  
-0.1083116279  0.4636066353  1.0000000000  
-0.1050994422  0.5052129870  1.0000000000  
-0.1018059440  0.5464570561  1.0000000000  
-0.0984499449  0.5870630579  1.0000000000  
-0.0950490427  0.6267864296  1.0000000000  
-0.0916196434  0.6654149000  1.0000000000  
-0.0881769835  0.7027685624  1.0000000000  
-0.0847351535  0.7386991255  1.0000000000  
-0.0813071232  0.7730885151  1.0000000000  
-0.0779047690  0.8058469816  1.0000000000  
-0.0745389038  0.8369108588  1.0000000000  
-0.0712193077  0.8662400980  1.0000000000  
-0.0679547628  0.8938156866  1.0000000000  
-0.0647530884  0.9196370394  1.0000000000  
-0.0616211796  0.9437194363  1.0000000000  
-0.0585650464  0.9660915633  1.0000000000  
-0.0555898560  0.9867931990  1.0000000000  
-0.0526999747  1.0058730765  1.0000000000  
-0.0498990121  1.0233869406  1.0000000000  
-0.0471898660  1.0393958091  1.0000000000  
-0.0445747672  1.0539644423  1.0000000000  
-0.0420553248  1.0671600146  1.0000000000  
-0.0396325718  1.0790509827  1.0000000000  
-0.0373070098  1.0897061368  1.0000000000  
-0.0350786531  1.0991938208  1.0000000000  
-0.0329470724  1.1075813068  1.0000000000  
-0.0309114370  1.1149343063  1.0000000000  
-0.0289705560  1.1213166015  1.0000000000  
-0.0271229174  1.1267893012  1.0000000000  
-0.0253667266  1.1313863866  1.0000000000  
-0.0236999422  1.1351256453  1.0000000000  
-0.0221203106  1.1379337060  1.0000000000  
-0.0206253983  1.1396457960  1.0000000000  
-0.0192126225  1.1400093172  1.0000000000  
-0.0178792794  1.1387026796  1.0000000000  
-0.0166225707  1.1353635409  1.0000000000  
-0.0154255620  1.1296206692  1.0000000000  
-0.0142886288  1.1211247471  1.0000000000  
-0.0131547958  1.1095748692  1.0000000000  
-0.0118935190  1.0947388611  1.0000000000  
-0.0102853704  1.0764666928  1.0000000000  
-0.0080255860  1.0546971178  1.0000000000  
-0.0047428446  1.0294582399  1.0000000000  
-0.0000274307  1.0008630453  1.0000000000  
0.0065369921  0.9691010785  1.0000000000  
0.0153426745  0.9344274405  1.0000000000  
0.0267313839  0.8971502031  1.0000000000  
0.0409741854  0.8576171807  1.0000000000  
0.0582581232  0.8162028338  1.0000000000  
0.0786796727  0.7732958975  1.0000000000  
0.1022442566  0.7292881620  1.0000000000  
0.1288707879  0.6845646780  1.0000000000  
0.1584000628  0.6394955351  1.0000000000  
0.1906058211  0.5944292543  1.0000000000  
0.2252073854  0.5496877553  1.0000000000  
0.2618829345  0.5055627997  1.0000000000  
0.3002826393  0.4623137723  1.0000000000  
0.3400410695  0.4201666354  1.0000000000  
0.3807884432  0.3793138819  1.0000000000  
0.4221604489  0.3399153118  1.0000000000  
0.4638064915  0.3020994608  1.0000000000  
0.5053963241  0.2659655236  1.0000000000  
0.5466251026  0.2315856298  1.0000000000  
0.5872169658  0.1990073449  1.0000000000  
0.6269272773  0.1682562900  1.0000000000  
0.6655436955  0.1393387896  1.0000000000  
0.7028862466  0.1122444752  1.0000000000  
0.7388065759  0.0869487865  1.0000000000  
0.7731865485  0.0634153285  1.0000000000  
0.8059363576  0.0415980533  1.0000000000  
0.8369922829  0.0214432479  1.0000000000  
0.8663142247  0.0028913174  1.0000000000  
0.8938831225  -0.0141216392  1.0000000000  
0.9196983457  -0.0296624572  1.0000000000  
0.9437751320  -0.0437997301  1.0000000000  
0.9661421277  -0.0566028176  1.0000000000  
0.9868390741  -0.0681410252  1.0000000000  
1.0059146699  -0.0784829372  1.0000000000  
1.0234246273  -0.0876958889  1.0000000000  
1.0394299343  -0.0958455613  1.0000000000  
1.0539953230  -0.1029956804  1.0000000000  
1.0671879417  -0.1092078077  1.0000000000  
1.0790762232  -0.1145412055  1.0000000000  
1.0897289353  -0.1190527641  1.0000000000  
1.0992144011  -0.1227969791  1.0000000000  
1.1075998738  -0.1258259672  1.0000000000  
1.1149510471  -0.1281895109  1.0000000000  
1.1213316870  -0.1299351244  1.0000000000  
1.1267893012  -0.1311081331  1.0000000000  
1.1313863866  -0.1317517617  1.0000000000  
1.1351256453  -0.1319072248  1.0000000000  
1.1379337060  -0.1316138183  1.0000000000  
1.1396457960  -0.1309090065  1.0000000000  
1.1400093172  -0.1298285057  1.0000000000  
1.1387026796  -0.1284063598  1.0000000000  
1.1353635409  -0.1266750099  1.0000000000  
1.1296206692  -0.1246653559  1.0000000000  
1.1211247471  -0.1224068110  1.0000000000  
1.1095748692  -0.1199273497  1.0000000000  
1.0947388611  -0.1172535486  1.0000000000  
1.0764666928  -0.1144106225  1.0000000000  
1.0546971178  -0.1114224554  1.0000000000  
1.0294582399  -0.1083116279  1.0000000000  
1.0008630453  -0.1050994422  1.0000000000  
0.9691010785  -0.1018059440  1.0000000000  
0.9344274405  -0.0984499449  1.0000000000  
0.8971502031  -0.0950490427  1.0000000000  
0.8576171807  -0.0916196434  1.0000000000  
0.8162028338  -0.0881769835  1.0000000000  
0.7732958975  -0.0847351535  1.0000000000  
0.7292881620  -0.0813071232  1.0000000000  
0.6845646780  -0.0779047690  1.0000000000  
0.6394955351  -0.0745389038  1.0000000000  
