0.0000000000  0.0000000000  1.0000000000  
0.0000000000  0.0000000000  1.0000000000  
0.0000000000  0.0000000000  1.0000000000  
0.0000000000  0.0000000000  1.0000000000  
0.0000000000  0.0000000000  1.0000000000  
0.0000000000  0.0000000000  1.0000000000  
0.0000000000  0.0000000000  1.0000000000  
0.0000000000  0.0000000000  1.0000000000  
0.0000000000  0.0000000000  1.0000000000  
0.0000000000  0.0000000000  1.0000000000  
0.0000000000  0.0000000000  1.0000000000  
0.0000000000  0.0000000000  1.0000000000  
0.0000000000  0.0000000000  1.0000000000  
0.0000000000  0.0000000000  1.0000000000  
0.0000000000  0.0000000000  1.0000000000  
0.0000000000  0.0000000000  1.0000000000  
0.0000000000  0.0000000000  1.0000000000  
0.0000000000  0.0000000000  1.0000000000  
0.0000000000  0.0000000000  1.0000000000  
0.0000000000  0.0000000000  1.0000000000  
0.0000000000  0.0000000000  1.0000000000  
0.0000000000  0.0000000000  1.0000000000  
0.0000000000  0.0000000000  1.0000000000  
0.0000000000  0.0000000000  1.0000000000  
0.0000000000  0.0000000000  1.0000000000  
0.0000004363  0.0000000000  1.0000000000  
0.0000119025  0.0000000000  1.0000000000  
0.0000834043  0.0000000000  1.0000000000  
0.0003308356  0.0000000000  1.0000000000  
0.0009509170  0.0000000000  1.0000000000  
0.0022179822  0.0000000000  1.0000000000  
0.0044669170  0.0000000000  1.0000000000  
0.0080675645  0.0000000000  1.0000000000  
0.0133958465  0.0000000000  1.0000000000  
0.0208058540  0.0000000000  1.0000000000  
0.0306058534  0.0000000000  1.0000000000  
0.0430399099  0.0000000000  1.0000000000  
0.0582757825  0.0000000000  1.0000000000  
0.0763989745  0.0000000000  1.0000000000  
0.0974122965  0.0000000000  1.0000000000  
0.1212399989  0.0000000000  1.0000000000  
0.1477354051  0.0000000000  1.0000000000  
0.1766909695  0.0000000000  1.0000000000  
0.2078497716  0.0000000000  1.0000000000  
0.2409175878  0.0000000000  1.0000000000  
0.2755748390  0.0000000000  1.0000000000  
0.3114878770  0.0000000000  1.0000000000  
0.3483192207  0.0000000000  1.0000000000  
0.3857364955  0.0000000000  1.0000000000  
0.4234199433  0.0000000000  1.0000000000  
0.4610684646  0.0000000000  1.0000000000  
0.4984042307  0.0000000000  1.0000000000  
0.5351759540  0.0000000000  1.0000000000  
0.5711609444  0.0000000000  1.0000000000  
0.6061660995  0.0000000000  1.0000000000  
0.6400279870  0.0000000000  1.0000000000  
0.6726121799  0.0000000000  1.0000000000  
0.7038119967  0.0000000000  1.0000000000  
0.7335467919  0.0000000000  1.0000000000  
0.7617599229  0.0000000000  1.0000000000  
0.7884165100  0.0000000000  1.0000000000  
0.8135010846  0.0000000000  1.0000000000  
0.8370152081  0.0000000000  1.0000000000  
0.8589751259  0.0000000000  1.0000000000  
0.8794095104  0.0000000000  1.0000000000  
0.8983573291  0.0000000000  1.0000000000  
0.9158658675  0.0000000000  1.0000000000  
0.9319889238  0.0000000000  1.0000000000  
0.9467851847  0.0000000000  1.0000000000  
0.9603167868  0.0000000000  1.0000000000  
0.9726480588  0.0000000000  1.0000000000  
0.9838444407  0.0000000000  1.0000000000  
0.9939715681  0.0000000000  1.0000000000  
1.0030945113  0.0000000000  1.0000000000  
1.0112771550  0.0000000000  1.0000000000  
1.0185817052  0.0000000000  1.0000000000  
1.0250683087  0.0000000000  1.0000000000  
1.0307947716  0.0000000000  1.0000000000  
1.0358163628  0.0000000000  1.0000000000  
1.0401856902  0.0000000000  1.0000000000  
1.0439526370  0.0000000000  1.0000000000  
1.0471643487  0.0000000000  1.0000000000  
1.0498652594  0.0000000000  1.0000000000  
1.0520971495  0.0000000000  1.0000000000  
1.0538992277  0.0000000000  1.0000000000  
1.0553082299  0.0000000000  1.0000000000  
1.0563585301  0.0000000000  1.0000000000  
1.0570822580  0.0000000000  1.0000000000  
1.0575094206  0.0000000000  1.0000000000  
1.0576680233  0.0000000000  1.0000000000  
1.0575841895  0.0000000000  1.0000000000  
1.0572822758  0.0000000000  1.0000000000  
1.0567849828  0.0000000000  1.0000000000  
1.0561134587  0.0000000000  1.0000000000  
1.0552873974  0.0000000000  1.0000000000  
1.0543251291  0.0000000000  1.0000000000  
1.0532437046  0.0000000000  1.0000000000  
1.0520589725  0.0000000000  1.0000000000  
1.0507856508  0.0000000000  1.0000000000  
1.0494373923  0.0000000000  1.0000000000  
1.0480268446  0.0000000000  1.0000000000  
1.0465657051  0.0000000000  1.0000000000  
1.0450647727  0.0000000000  1.0000000000  
1.0435339940  0.0000000000  1.0000000000  
1.0419825083  0.0000000000  1.0000000000  
1.0404186876  0.0000000000  1.0000000000  
1.0388501761  0.0000000000  1.0000000000  
1.0372839264  0.0000000000  1.0000000000  
1.0357262347  0.0000000000  1.0000000000  
1.0341827740  0.0000000000  1.0000000000  
1.0326586271  0.0000000000  1.0000000000  
1.0311583173  0.0000000000  1.0000000000  
1.0296858393  0.0000000000  1.0000000000  
1.0282446890  0.0000000000  1.0000000000  
1.0268378926  0.0000000000  1.0000000000  
1.0254680353  0.0000000000  1.0000000000  
1.0241372890  0.0000000000  1.0000000000  
1.0228474401  0.0000000000  1.0000000000  
1.0215999160  0.0000000000  1.0000000000  
1.0203958114  0.0000000000  1.0000000000  
1.0192359139  0.0000000000  1.0000000000  
1.0181207287  0.0000000000  1.0000000000  
1.0170505026  0.0000000000  1.0000000000  
1.0160252475  0.0000000000  1.0000000000  
1.0150447627  0.0000000000  1.0000000000  
1.0141086562  0.0000000000  1.0000000000  
1.0132163658  0.0000004363  1.0000000000  
1.0123671781  0.0000119025  1.0000000000  
1.0115598111  0.0000834043  1.0000000000  
1.0107827111  0.0003308356  1.0000000000  
1.0099858137  0.0009509170  1.0000000000  
1.0090520840  0.0022179822  1.0000000000  
1.0077835920  0.0044669170  1.0000000000  
1.0059047402  0.0080675645  1.0000000000  
1.0030793361  0.0133958465  1.0000000000  
0.9989361997  0.0208058540  1.0000000000  
0.9930980513  0.0306058534  1.0000000000  
0.9852094313  0.0430399099  1.0000000000  
0.9749607017  0.0582757825  1.0000000000  
0.9621064317  0.0763989745  1.0000000000  
0.9464775079  0.0974122965  1.0000000000  
0.9279870912  0.1212399989  1.0000000000  
0.9066310585  0.1477354051  1.0000000000  
0.8824838743  0.1766909695  1.0000000000  
0.8556909622  0.2078497716  1.0000000000  
0.8264586498  0.2409175878  1.0000000000  
0.7950426770  0.2755748390  1.0000000000  
0.7617361271  0.3114878770  1.0000000000  
0.7268574797  0.3483192207  1.0000000000  
0.6907393270  0.3857364955  1.0000000000  
0.6537181371  0.4234199433  1.0000000000  
0.6161253157  0.4610684646  1.0000000000  
0.5782796964  0.4984042307  1.0000000000  
0.5404814979  0.5351759540  1.0000000000  
0.5030077118  0.5711609444  1.0000000000  
0.4661088317  0.6061660995  1.0000000000  
0.4300067957  0.6400279870  1.0000000000  
0.3948939957  0.6726121799  1.0000000000  
0.3609331932  0.7038119967  1.0000000000  
0.3282581837  0.7335467919  1.0000000000  
0.2969750545  0.7617599229  1.0000000000  
0.2671638935  0.7884165100  1.0000000000  
0.2388808201  0.8135010846  1.0000000000  
0.2121602245  0.8370152081  1.0000000000  
0.1870171173  0.8589751259  1.0000000000  
0.1634495100  0.8794095104  1.0000000000  
0.1414407585  0.8983573291  1.0000000000  
0.1209618195  0.9158658675  1.0000000000  
0.1019733803  0.9319889238  1.0000000000  
0.0844278350  0.9467851847  1.0000000000  
0.0682710881  0.9603167868  1.0000000000  
0.0534441771  0.9726480588  1.0000000000  
0.0398847107  0.9838444407  1.0000000000  
0.0275281241  0.9939715681  1.0000000000  
0.0163087598  1.0030945113  1.0000000000  
0.0061607811  1.0112771550  1.0000000000  
-0.0029806311  1.0185817052  1.0000000000  
-0.0111689384  1.0250683087  1.0000000000  
-0.0184174978  1.0307943353  1.0000000000  
-0.0246707064  1.0358044604  1.0000000000  
-0.0297897818  1.0401022859  1.0000000000  
-0.0335557808  1.0436218014  1.0000000000  
-0.0356865361  1.0462134317  1.0000000000  
-0.0358621902  1.0476472772  1.0000000000  
-0.0337540594  1.0476302324  1.0000000000  
-0.0290525722  1.0458316632  1.0000000000  
-0.0214913199  1.0419123834  1.0000000000  
-0.0108593417  1.0355526761  1.0000000000  
0.0029675287  1.0264764046  1.0000000000  
0.0200404206  1.0144695108  1.0000000000  
0.0403300146  0.9993922409  1.0000000000  
0.0637305544  0.9811852149  1.0000000000  
0.0900673579  0.9598699794  1.0000000000  
0.1191067562  0.9355449839  1.0000000000  
0.1505674720  0.9083780536  1.0000000000  
0.1841325811  0.8785964279  1.0000000000  
0.2194613564  0.8464753575  1.0000000000  
0.2562004557  0.8123261168  1.0000000000  
0.2939940677  0.7764841334  1.0000000000  
0.3324927671  0.7392977738  1.0000000000  
0.3713609470  0.7011181716  1.0000000000  
0.4102827899  0.6622903491  1.0000000000  
0.4489668145  0.6231457619  1.0000000000  
0.4871490855  0.5839963081  1.0000000000  
0.5245952154  0.5451297633  1.0000000000  
0.5611013029  0.5068065543  1.0000000000  
0.5964939691  0.4692577432  1.0000000000  
0.6306296477  0.4326840766  1.0000000000  
0.6633932853  0.3972559394  1.0000000000  
0.6946965920  0.3631140548  1.0000000000  
0.7244759726  0.3303707773  1.0000000000  
0.7526902515  0.2991118352  1.0000000000  
0.7793182867  0.2693983944  1.0000000000  
0.8043565571  0.2412693293  1.0000000000  
0.8278167847  0.2147436044  1.0000000000  
0.8497236472  0.1898226846  1.0000000000  
0.8701126162  0.1664929094  1.0000000000  
0.8890279510  0.1447277786  1.0000000000  
0.9065208646  0.1244901110  1.0000000000  
0.9226478719  0.1057340485  1.0000000000  
0.9374693228  0.0884068877  1.0000000000  
0.9510481189  0.0724507292  1.0000000000  
0.9634486054  0.0578039419  1.0000000000  
0.9747356303  0.0444024438  1.0000000000  
0.9849737588  0.0321808068  1.0000000000  
0.9942266286  0.0210731946  1.0000000000  
1.0025564338  0.0110141450  1.0000000000  
1.0100235222  0.0019392108  1.0000000000  
1.0166860915  -0.0062145271  1.0000000000  
1.0225999732  -0.0135080612  1.0000000000  
1.0278184882  -0.0200001580  1.0000000000  
1.0323923657  -0.0257471448  1.0000000000  
1.0363697113  -0.0308027706  1.0000000000  
1.0397960175  -0.0352181280  1.0000000000  
1.0427142060  -0.0390416264  1.0000000000  
1.0451646948  -0.0423190062  1.0000000000  
1.0471854837  -0.0450933852  1.0000000000  
1.0488122531  -0.0474053298  1.0000000000  
1.0500784699  -0.0492929447  1.0000000000  
1.0510154989  -0.0507919749  1.0000000000  
1.0516527142  -0.0519359165  1.0000000000  
1.0520176105  -0.0527561302  1.0000000000  
1.0521359104  -0.0532819575  1.0000000000  
1.0520316685  -0.0535408345  1.0000000000  
1.0517273691  -0.0535584026  1.0000000000  
1.0512440186  -0.0533586155  1.0000000000  
1.0506012321  -0.0529638395  1.0000000000  
1.0498173134  -0.0523949488  1.0000000000  
1.0489093293  -0.0516714143  1.0000000000  
1.0478931783  -0.0508113858  1.0000000000  
1.0467836536  -0.0498317684  1.0000000000  
1.0455945020  -0.0487482930  1.0000000000  
1.0443384773  -0.0475755811  1.0000000000  
1.0430273910  -0.0463272049  1.0000000000  
1.0416721589  -0.0450157427  1.0000000000  
1.0402828447  -0.0436528302  1.0000000000  
1.0388687012  -0.0422492083  1.0000000000  
1.0374382097  -0.0408147681  1.0000000000  
1.0359991168  -0.0393585924  1.0000000000  
1.0345584706  -0.0378889959  1.0000000000  
1.0331226550  -0.0364135628  1.0000000000  
1.0316974231  -0.0349391834  1.0000000000  
1.0302879299  -0.0334720887  1.0000000000  
1.0288987642  -0.0320178841  1.0000000000  
1.0275339797  -0.0305815829  1.0000000000  
1.0261971257  -0.0291676374  1.0000000000  
1.0248912770  -0.0277799709  1.0000000000  
1.0236190632  -0.0264220082  1.0000000000  
1.0223826982  -0.0250967054  1.0000000000  
1.0211840077  -0.0238065796  1.0000000000  
1.0200244577  -0.0225537376  1.0000000000  
1.0189051806  -0.0213399041  1.0000000000  
1.0178270023  -0.0201664496  1.0000000000  
1.0167904668  -0.0190344165  1.0000000000  
1.0157958618  -0.0179445457  1.0000000000  
1.0148432413  -0.0168973021  1.0000000000  
1.0139324495  -0.0158928983  1.0000000000  
1.0130631415  -0.0149308825  1.0000000000  
1.0122348051  -0.0140004397  1.0000000000  
1.0114463434  -0.0130521585  1.0000000000  
1.0106863732  -0.0119695758  1.0000000000  
1.0099049868  -0.0105552577  1.0000000000  
1.0089852934  -0.0085340315  1.0000000000  
1.0077294954  -0.0055700639  1.0000000000  
1.0058621164  -0.0012924727  1.0000000000  
1.0030470752  0.0046757803  1.0000000000  
0.9989132935  0.0126899649  1.0000000000  
0.9930835847  0.0230595764  1.0000000000  
0.9852025742  0.0360361218  1.0000000000  
0.9749607017  0.0517818607  1.0000000000  
0.9621064317  0.0703836654  1.0000000000  
0.9464775079  0.0918457175  1.0000000000  
0.9279870912  0.1160936335  1.0000000000  
0.9066310585  0.1429820908  1.0000000000  
0.8824838743  0.1723048799  1.0000000000  
0.8556909622  0.2038063928  1.0000000000  
0.8264586498  0.2371936907  1.0000000000  
0.7950426770  0.2721484479  1.0000000000  
0.7617361271  0.3083382339  1.0000000000  
0.7268574797  0.3454267482  1.0000000000  
0.6907393270  0.3830827568  1.0000000000  
0.6537181371  0.4209876007  1.0000000000  
0.6161253157  0.4588412367  1.0000000000  
0.5782796964  0.4963668490  1.0000000000  
0.5404814979  0.5333141189  1.0000000000  
0.5030077118  0.5694612808  1.0000000000  
0.4661088317  0.6046161131  1.0000000000  
0.4300067957  0.6386160206  1.0000000000  
0.3948939957  0.6713273703  1.0000000000  
0.3609331932  0.7026442327  1.0000000000  
0.3282581837  0.7324866729  1.0000000000  
0.2969750545  0.7607987188  1.0000000000  
0.2671638935  0.7875461225  1.0000000000  
0.2388808201  0.8127140095  1.0000000000  
0.2121602245  0.8363044988  1.0000000000  
0.1870171173  0.8583343590  1.0000000000  
0.1634495100  0.8788327521  1.0000000000  
0.1414407585  0.8978391033  1.0000000000  
0.1209618195  0.9154011256  1.0000000000  
0.1019733803  0.9315730155  1.0000000000  
0.0844278350  0.9464138310  1.0000000000  
0.0682710881  0.9599860535  1.0000000000  
0.0534441771  0.9723543324  1.0000000000  
0.0398847107  0.9835844049  1.0000000000  
0.0275281241  0.9937421824  1.0000000000  
0.0163087598  1.0028929900  1.0000000000  
0.0061607811  1.0111009482  1.0000000000  
-0.0029810674  1.0184284809  1.0000000000  
-0.0111808409  1.0249359357  1.0000000000  
-0.0185009021  1.0306808676  1.0000000000  
-0.0250011056  1.0357081224  1.0000000000  
-0.0307287964  1.0400214590  1.0000000000  
-0.0356903587  1.0435550108  1.0000000000  
-0.0398226176  1.0461593351  1.0000000000  
-0.0429788377  1.0476046535  1.0000000000  
-0.0449319238  1.0475979716  1.0000000000  
-0.0453915091  1.0458087570  1.0000000000  
-0.0440296088  1.0418979168  1.0000000000  
-0.0405034050  1.0355458190  1.0000000000  
-0.0345023998  1.0264764046  1.0000000000  
-0.0257527005  1.0144695108  1.0000000000  
-0.0140423720  0.9993922409  1.0000000000  
0.0007663380  0.9811852149  1.0000000000  
0.0187309273  0.9598699794  1.0000000000  
0.0398280831  0.9355449839  1.0000000000  
0.0639576992  0.9083780536  1.0000000000  
0.0909503984  0.8785964279  1.0000000000  
0.1205774869  0.8464753575  1.0000000000  
0.1525623503  0.8123261168  1.0000000000  
0.1865924348  0.7764841334  1.0000000000  
0.2223311106  0.7392977738  1.0000000000  
0.2594288807  0.7011181716  1.0000000000  
0.2975335460  0.6622903491  1.0000000000  
0.3362990793  0.6231457619  1.0000000000  
0.3753930748  0.5839963081  1.0000000000  
0.4145027356  0.5451297633  1.0000000000  
0.4533394342  0.5068065543  1.0000000000  
0.4916419361  0.4692577432  1.0000000000  
0.5291784123  0.4326840766  1.0000000000  
0.5657473880  0.3972559394  1.0000000000  
0.6011777870  0.3631140548  1.0000000000  
0.6353282296  0.3303707773  1.0000000000  
0.6680857382  0.2991118352  1.0000000000  
0.6993639940  0.2693983944  1.0000000000  
0.7291012719  0.2412693293  1.0000000000  
0.7572581688  0.2147436044  1.0000000000  
0.7838152214  0.1898226846  1.0000000000  
0.8087704952  0.1664929094  1.0000000000  
0.8321372094  0.1447277786  1.0000000000  
0.8539414513  0.1244901110  1.0000000000  
0.8742200162  0.1057340485  1.0000000000  
0.8930184035  0.0884068877  1.0000000000  
0.9103889839  0.0724507292  1.0000000000  
0.9263893494  0.0578039419  1.0000000000  
0.9410808490  0.0444024438  1.0000000000  
0.9545273063  0.0321808068  1.0000000000  
0.9667939142  0.0210731946  1.0000000000  
0.9779462967  0.0110141450  1.0000000000  
0.9880497248  0.0019392108  1.0000000000  
0.9971684749  -0.0062145271  1.0000000000  
1.0053653155  -0.0135080612  1.0000000000  
1.0127011067  -0.0200001580  1.0000000000  
1.0192345003  -0.0257471448  1.0000000000  
1.0250217254  -0.0308027706  1.0000000000  
1.0301164483  -0.0352181280  1.0000000000  
1.0345696935  -0.0390416264  1.0000000000  
1.0384298158  -0.0423190062  1.0000000000  
1.0417425132  -0.0450933852  1.0000000000  
1.0445508725  -0.0474053298  1.0000000000  
1.0468954396  -0.0492929447  1.0000000000  
1.0488143082  -0.0507919749  1.0000000000  
1.0503432210  -0.0519359165  1.0000000000  
1.0515156790  -0.0527561302  1.0000000000  
1.0523630552  -0.0532819575  1.0000000000  
1.0529147090  -0.0535408345  1.0000000000  
1.0531980998  -0.0535584026  1.0000000000  
1.0532388970  -0.0533586155  1.0000000000  
1.0530610858  -0.0529638395  1.0000000000  
1.0526870676  -0.0523949488  1.0000000000  
1.0521377543  -0.0516714143  1.0000000000  
1.0514326566  -0.0508113858  1.0000000000  
1.0505899659  -0.0498317684  1.0000000000  
1.0496266298  -0.0487482930  1.0000000000  
1.0485584229  -0.0475755811  1.0000000000  
1.0474000107  -0.0463272049  1.0000000000  
1.0461650095  -0.0450157427  1.0000000000  
1.0448660416  -0.0436528302  1.0000000000  
1.0435147863  -0.0422492083  1.0000000000  
1.0421220277  -0.0408147681  1.0000000000  
1.0406976987  -0.0393585924  1.0000000000  
1.0392509236  -0.0378889959  1.0000000000  
1.0377900571  -0.0364135628  1.0000000000  
1.0363227223  -0.0349391834  1.0000000000  
1.0348558472  -0.0334720887  1.0000000000  
1.0333956989  -0.0320178841  1.0000000000  
1.0319479179  -0.0305815829  1.0000000000  
1.0305175504  -0.0291676374  1.0000000000  
1.0291090810  -0.0277799709  1.0000000000  
1.0277264632  -0.0264220082  1.0000000000  
1.0263731507  -0.0250967054  1.0000000000  
1.0250521270  -0.0238065796  1.0000000000  
1.0237659352  -0.0225537376  1.0000000000  
1.0225167068  -0.0213399041  1.0000000000  
1.0213061896  -0.0201664496  1.0000000000  
1.0201357757  -0.0190344165  1.0000000000  
1.0190065282  -0.0179445457  1.0000000000  
1.0179192073  -0.0168973021  1.0000000000  
1.0168742958  -0.0158928983  1.0000000000  
1.0158720232  -0.0149313188  1.0000000000  
1.0149123896  -0.0140123421  1.0000000000  
1.0139951885  -0.0131355627  1.0000000000  
1.0131200279  -0.0123004114  1.0000000000  
1.0122863512  -0.0115057384  1.0000000000  
1.0114930205  -0.0107401112  1.0000000000  
1.0107286145  -0.0099535767  1.0000000000  
1.0099431900  -0.0090292017  1.0000000000  
1.0090198231  -0.0077691493  1.0000000000  
1.0077606858  -0.0058979069  1.0000000000  
1.0058902736  -0.0030793600  1.0000000000  
1.0030724790  0.0010637764  1.0000000000  
0.9989361997  0.0069019248  1.0000000000  
0.9930980513  0.0147905448  1.0000000000  
0.9852094313  0.0250392744  1.0000000000  
0.9749607017  0.0378935445  1.0000000000  
0.9621064317  0.0535224682  1.0000000000  
0.9464775079  0.0720128849  1.0000000000  
0.9279870912  0.0933689176  1.0000000000  
0.9066310585  0.1175161019  1.0000000000  
0.8824838743  0.1443090139  1.0000000000  
0.8556909622  0.1735413264  1.0000000000  
0.8264586498  0.2049572991  1.0000000000  
0.7950426770  0.2382638491  1.0000000000  
0.7617361271  0.2731424964  1.0000000000  
0.7268574797  0.3092606492  1.0000000000  
0.6907393270  0.3462818390  1.0000000000  
0.6537181371  0.3838746604  1.0000000000  
0.6161253157  0.4217202797  1.0000000000  
0.5782796964  0.4595184783  1.0000000000  
0.5404814979  0.4969922643  1.0000000000  
0.5030077118  0.5338911444  1.0000000000  
0.4661088317  0.5699931804  1.0000000000  
0.4300067957  0.6051059804  1.0000000000  
0.3948939957  0.6390667829  1.0000000000  
0.3609331932  0.6717417924  1.0000000000  
0.3282581837  0.7030249216  1.0000000000  
0.2969750545  0.7328360827  1.0000000000  
0.2671638935  0.7611191560  1.0000000000  
0.2388808201  0.7878397517  1.0000000000  
0.2121602245  0.8129828588  1.0000000000  
0.1870171173  0.8365504661  1.0000000000  
0.1634495100  0.8585592176  1.0000000000  
0.1414407585  0.8790381567  1.0000000000  
0.1209618195  0.8980265958  1.0000000000  
0.1019733803  0.9155721411  1.0000000000  
0.0844278350  0.9317288880  1.0000000000  
0.0682710881  0.9465557990  1.0000000000  
0.0534441771  0.9601152655  1.0000000000  
0.0398847107  0.9724718520  1.0000000000  
0.0275281241  0.9836912163  1.0000000000  
0.0163087598  0.9938391951  1.0000000000  
0.0061607811  1.0029810436  1.0000000000  
-0.0029810674  1.0111808170  1.0000000000  
-0.0111808409  1.0185008783  1.0000000000  
-0.0185009021  1.0250015181  1.0000000000  
-0.0250011056  1.0307402387  1.0000000000  
-0.0307287964  1.0357618366  1.0000000000  
-0.0356903587  1.0400700250  1.0000000000  
-0.0398226176  1.0435988952  1.0000000000  
-0.0429788377  1.0461989651  1.0000000000  
-0.0449319238  1.0476404201  1.0000000000  
-0.0453915091  1.0476302324  1.0000000000  
-0.0440296088  1.0458316632  1.0000000000  
-0.0405034050  1.0419123834  1.0000000000  
-0.0345023998  1.0355526761  1.0000000000  
-0.0257527005  1.0264764046  1.0000000000  
-0.0140423720  1.0144695108  1.0000000000  
0.0007663380  0.9993922409  1.0000000000  
0.0187309273  0.9811852149  1.0000000000  
0.0398280831  0.9598699794  1.0000000000  
0.0639576992  0.9355449839  1.0000000000  
0.0909503984  0.9083780536  1.0000000000  
0.1205774869  0.8785964279  1.0000000000  
0.1525623503  0.8464753575  1.0000000000  
0.1865924348  0.8123261168  1.0000000000  
0.2223311106  0.7764841334  1.0000000000  
0.2594288807  0.7392977738  1.0000000000  
0.2975335460  0.7011181716  1.0000000000  
0.3362990793  0.6622903491  1.0000000000  
0.3753930748  0.6231457619  1.0000000000  
0.4145027356  0.5839963081  1.0000000000  
0.4533394342  0.5451297633  1.0000000000  
0.4916419361  0.5068065543  1.0000000000  
0.5291784123  0.4692577432  1.0000000000  
0.5657473880  0.4326840766  1.0000000000  
0.6011777870  0.3972559394  1.0000000000  
0.6353282296  0.3631140548  1.0000000000  
0.6680857382  0.3303707773  1.0000000000  
0.6993639940  0.2991118352  1.0000000000  
0.7291012719  0.2693983944  1.0000000000  
0.7572581688  0.2412693293  1.0000000000  
0.7838152214  0.2147436044  1.0000000000  
0.8087704952  0.1898226846  1.0000000000  
0.8321372094  0.1664929094  1.0000000000  
0.8539414513  0.1447277786  1.0000000000  
0.8742200162  0.1244901110  1.0000000000  
0.8930184035  0.1057340485  1.0000000000  
0.9103889839  0.0884068877  1.0000000000  
0.9263893494  0.0724507292  1.0000000000  
0.9410808490  0.0578039419  1.0000000000  
0.9545273063  0.0444024438  1.0000000000  
0.9667939142  0.0321808068  1.0000000000  
0.9779462967  0.0210731946  1.0000000000  
0.9880497248  0.0110141450  1.0000000000  
0.9971684749  0.0019392108  1.0000000000  
1.0053653155  -0.0062145271  1.0000000000  
1.0127011067  -0.0135080612  1.0000000000  
1.0192345003  -0.0200001580  1.0000000000  
1.0250217254  -0.0257471448  1.0000000000  
1.0301164483  -0.0308027706  1.0000000000  
1.0345696935  -0.0352181280  1.0000000000  
1.0384298158  -0.0390416264  1.0000000000  
1.0417425132  -0.0423190062  1.0000000000  
1.0445508725  -0.0450933852  1.0000000000  
1.0468954396  -0.0474053298  1.0000000000  
1.0488143082  -0.0492929447  1.0000000000  
1.0503432210  -0.0507919749  1.0000000000  
1.0515156790  -0.0519359165  1.0000000000  
1.0523630552  -0.0527561302  1.0000000000  
1.0529147090  -0.0532819575  1.0000000000  
1.0531980998  -0.0535408345  1.0000000000  
1.0532388970  -0.0535584026  1.0000000000  
1.0530610858  -0.0533586155  1.0000000000  
1.0526870676  -0.0529638395  1.0000000000  
1.0521377543  -0.0523949488  1.0000000000  
1.0514326566  -0.0516714143  1.0000000000  
1.0505899659  -0.0508113858  1.0000000000  
1.0496266298  -0.0498317684  1.0000000000  
1.0485584229  -0.0487482930  1.0000000000  
1.0474000107  -0.0475755811  1.0000000000  
1.0461650095  -0.0463272049  1.0000000000  
1.0448660416  -0.0450157427  1.0000000000  
1.0435147863  -0.0436528302  1.0000000000  
1.0421220277  -0.0422492083  1.0000000000  
1.0406976987  -0.0408147681  1.0000000000  
1.0392509236  -0.0393585924  1.0000000000  
1.0377900571  -0.0378889959  1.0000000000  
1.0363227223  -0.0364135628  1.0000000000  
1.0348558472  -0.0349391834  1.0000000000  
1.0333956989  -0.0334720887  1.0000000000  
1.0319479179  -0.0320178841  1.0000000000  
1.0305175504  -0.0305815829  1.0000000000  
1.0291090810  -0.0291676374  1.0000000000  
1.0277264632  -0.0277799709  1.0000000000  
1.0263731507  -0.0264220082  1.0000000000  
1.0250521270  -0.0250967054  1.0000000000  
1.0237659352  -0.0238065796  1.0000000000  
1.0225167068  -0.0225537376  1.0000000000  
1.0213061896  -0.0213399041  1.0000000000  
1.0201357757  -0.0201664496  1.0000000000  
1.0190065282  -0.0190344165  1.0000000000  
1.0179192073  -0.0179445457  1.0000000000  
1.0168742958  -0.0168973021  1.0000000000  
1.0158720232  -0.0158928983  1.0000000000  
1.0149123896  -0.0149313188  1.0000000000  
1.0139951885  -0.0140123421  1.0000000000  
1.0131200279  -0.0131355627  1.0000000000  
1.0122863512  -0.0123004114  1.0000000000  
1.0114930205  -0.0115061747  1.0000000000  
1.0107286145  -0.0107520137  1.0000000000  
1.0099431900  -0.0100369810  1.0000000000  
1.0090198231  -0.0093600373  1.0000000000  
1.0077606858  -0.0087200663  1.0000000000  
1.0058902736  -0.0081158891  1.0000000000  
1.0030724790  -0.0075462770  1.0000000000  
0.9989361997  -0.0070037881  1.0000000000  
0.9930980513  -0.0064939217  1.0000000000  
0.9852094313  -0.0060153091  1.0000000000  
0.9749607017  -0.0055665790  1.0000000000  
0.9621064317  -0.0051463654  1.0000000000  
0.9464775079  -0.0047533143  1.0000000000  
0.9279870912  -0.0043860896  1.0000000000  
0.9066310585  -0.0040433788  1.0000000000  
0.8824838743  -0.0037238970  1.0000000000  
0.8556909622  -0.0034263912  1.0000000000  
0.8264586498  -0.0031496431  1.0000000000  
0.7950426770  -0.0028924725  1.0000000000  
0.7617361271  -0.0026537387  1.0000000000  
0.7268574797  -0.0024323426  1.0000000000  
0.6907393270  -0.0022272279  1.0000000000  
0.6537181371  -0.0020373817  1.0000000000  
0.6161253157  -0.0018618351  1.0000000000  
0.5782796964  -0.0016996636  1.0000000000  
